""
Day,Temperature
1,12
2,12.5
3,13
4,13.5
5,14
6,14.2
7,14.5
8,14.8
9,15
10,15.5
11,16
12,16.3
13,16.5
14,17
15,17.5
16,17.6
17,17.8
18,18
19,18.5
20,19
21,19.5
22,19.7
23,19.9
24,20
25,19.8
26,19.6
27,19.3
28,19
29,18.8
30,18.5
31,18.2
""
