""
Day,Average Daily Temperature (°C)
1,10.5
2,11.2
3,12.0
4,13.8
5,14.6
6,15.3
7,15.9
8,16.5
9,17.0
10,17.4
11,17.8
12,18.2
13,18.6
14,19.0
15,19.3
16,19.5
17,19.7
18,19.9
19,20.0
20,20.1
21,20.0
22,19.8
23,19.5
24,19.1
25,18.6
26,18.0
27,17.3
28,16.5
29,15.6
30,14.6
31,13.5
""
