""
Day,Running Distance (km)
1,10.5
2,10.2
3,9.8
4,9.6
5,9.5
6,9.3
7,9.1
8,8.9
9,8.8
10,8.6
11,8.4
12,8.3
13,8.1
14,7.9
15,7.8
16,7.6
17,7.4
18,7.3
19,7.1
20,6.9
21,6.8
22,6.6
23,6.4
24,6.2
25,6
26,5.9
27,5.7
28,5.5
29,5.4
30,5.2
""
